X-channel SetVoltage(V) vs Field(mT)
-10.000000 	 -90.484000 	
-9.989995 	 -90.495000 	
-9.979990 	 -90.507000 	
-9.969985 	 -90.501000 	
-9.959980 	 -90.456000 	
-9.949975 	 -90.378000 	
-9.939970 	 -90.288000 	
-9.929965 	 -90.213000 	
-9.919960 	 -90.122000 	
-9.909955 	 -90.031000 	
-9.899950 	 -89.956000 	
-9.889945 	 -89.865000 	
-9.879940 	 -89.773000 	
-9.869935 	 -89.682000 	
-9.859930 	 -89.606000 	
-9.849925 	 -89.514000 	
-9.839920 	 -89.422000 	
-9.829915 	 -89.345000 	
-9.819910 	 -89.253000 	
-9.809905 	 -89.161000 	
-9.799900 	 -89.069000 	
-9.789895 	 -88.992000 	
-9.779890 	 -88.900000 	
-9.769885 	 -88.808000 	
-9.759880 	 -88.730000 	
-9.749875 	 -88.638000 	
-9.739870 	 -88.546000 	
-9.729865 	 -88.453000 	
-9.719860 	 -88.376000 	
-9.709855 	 -88.283000 	
-9.699850 	 -88.190000 	
-9.689845 	 -88.112000 	
-9.679840 	 -88.018000 	
-9.669835 	 -87.923000 	
-9.659830 	 -87.830000 	
-9.649825 	 -87.753000 	
-9.639820 	 -87.660000 	
-9.629815 	 -87.567000 	
-9.619810 	 -87.490000 	
-9.609805 	 -87.396000 	
-9.599800 	 -87.303000 	
-9.589795 	 -87.209000 	
-9.579790 	 -87.131000 	
-9.569785 	 -87.038000 	
-9.559780 	 -86.945000 	
-9.549775 	 -86.851000 	
-9.539770 	 -86.759000 	
-9.529765 	 -86.683000 	
-9.519760 	 -86.591000 	
-9.509755 	 -86.498000 	
-9.499750 	 -86.405000 	
-9.489745 	 -86.326000 	
-9.479740 	 -86.231000 	
-9.469735 	 -86.136000 	
-9.459730 	 -86.057000 	
-9.449725 	 -85.963000 	
-9.439720 	 -85.870000 	
-9.429715 	 -85.777000 	
-9.419710 	 -85.701000 	
-9.409705 	 -85.611000 	
-9.399700 	 -85.517000 	
-9.389695 	 -85.423000 	
-9.379690 	 -85.345000 	
-9.369685 	 -85.251000 	
-9.359680 	 -85.158000 	
-9.349675 	 -85.064000 	
-9.339670 	 -84.986000 	
-9.329665 	 -84.892000 	
-9.319660 	 -84.798000 	
-9.309655 	 -84.704000 	
-9.299650 	 -84.625000 	
-9.289645 	 -84.531000 	
-9.279640 	 -84.437000 	
-9.269635 	 -84.359000 	
-9.259630 	 -84.265000 	
-9.249625 	 -84.172000 	
-9.239620 	 -84.077000 	
-9.229615 	 -83.999000 	
-9.219610 	 -83.905000 	
-9.209605 	 -83.811000 	
-9.199600 	 -83.732000 	
-9.189595 	 -83.637000 	
-9.179590 	 -83.541000 	
-9.169585 	 -83.445000 	
-9.159580 	 -83.367000 	
-9.149575 	 -83.272000 	
-9.139570 	 -83.178000 	
-9.129565 	 -83.084000 	
-9.119560 	 -83.005000 	
-9.109555 	 -82.911000 	
-9.099550 	 -82.816000 	
-9.089545 	 -82.722000 	
-9.079540 	 -82.643000 	
-9.069535 	 -82.549000 	
-9.059530 	 -82.456000 	
-9.049525 	 -82.378000 	
-9.039520 	 -82.284000 	
-9.029515 	 -82.189000 	
-9.019510 	 -82.110000 	
-9.009505 	 -82.015000 	
-8.999500 	 -81.921000 	
-8.989495 	 -81.826000 	
-8.979490 	 -81.732000 	
-8.969485 	 -81.653000 	
-8.959480 	 -81.559000 	
-8.949475 	 -81.464000 	
-8.939470 	 -81.369000 	
-8.929465 	 -81.290000 	
-8.919460 	 -81.196000 	
-8.909455 	 -81.102000 	
-8.899450 	 -81.023000 	
-8.889445 	 -80.929000 	
-8.879440 	 -80.835000 	
-8.869435 	 -80.740000 	
-8.859430 	 -80.660000 	
-8.849425 	 -80.566000 	
-8.839420 	 -80.471000 	
-8.829415 	 -80.392000 	
-8.819410 	 -80.298000 	
-8.809405 	 -80.203000 	
-8.799400 	 -80.108000 	
-8.789395 	 -80.029000 	
-8.779390 	 -79.934000 	
-8.769385 	 -79.839000 	
-8.759380 	 -79.760000 	
-8.749375 	 -79.665000 	
-8.739370 	 -79.571000 	
-8.729365 	 -79.476000 	
-8.719360 	 -79.397000 	
-8.709355 	 -79.303000 	
-8.699350 	 -79.208000 	
-8.689345 	 -79.113000 	
-8.679340 	 -79.034000 	
-8.669335 	 -78.939000 	
-8.659330 	 -78.843000 	
-8.649325 	 -78.748000 	
-8.639320 	 -78.670000 	
-8.629315 	 -78.577000 	
-8.619310 	 -78.483000 	
-8.609305 	 -78.387000 	
-8.599300 	 -78.292000 	
-8.589295 	 -78.215000 	
-8.579290 	 -78.122000 	
-8.569285 	 -78.029000 	
-8.559280 	 -77.933000 	
-8.549275 	 -77.854000 	
-8.539270 	 -77.759000 	
-8.529265 	 -77.663000 	
-8.519260 	 -77.584000 	
-8.509255 	 -77.489000 	
-8.499250 	 -77.394000 	
-8.489245 	 -77.314000 	
-8.479240 	 -77.219000 	
-8.469235 	 -77.124000 	
-8.459230 	 -77.029000 	
-8.449225 	 -76.951000 	
-8.439220 	 -76.857000 	
-8.429215 	 -76.764000 	
-8.419210 	 -76.685000 	
-8.409205 	 -76.588000 	
-8.399200 	 -76.491000 	
-8.389195 	 -76.396000 	
-8.379190 	 -76.317000 	
-8.369185 	 -76.222000 	
-8.359180 	 -76.127000 	
-8.349175 	 -76.047000 	
-8.339170 	 -75.950000 	
-8.329165 	 -75.852000 	
-8.319160 	 -75.757000 	
-8.309155 	 -75.678000 	
-8.299150 	 -75.583000 	
-8.289145 	 -75.487000 	
-8.279140 	 -75.408000 	
-8.269135 	 -75.313000 	
-8.259130 	 -75.218000 	
-8.249125 	 -75.122000 	
-8.239120 	 -75.043000 	
-8.229115 	 -74.948000 	
-8.219110 	 -74.852000 	
-8.209105 	 -74.771000 	
-8.199100 	 -74.674000 	
-8.189095 	 -74.578000 	
-8.179090 	 -74.483000 	
-8.169085 	 -74.404000 	
-8.159080 	 -74.309000 	
-8.149075 	 -74.213000 	
-8.139070 	 -74.134000 	
-8.129065 	 -74.038000 	
-8.119060 	 -73.943000 	
-8.109055 	 -73.847000 	
-8.099050 	 -73.768000 	
-8.089045 	 -73.672000 	
-8.079040 	 -73.577000 	
-8.069035 	 -73.498000 	
-8.059030 	 -73.403000 	
-8.049025 	 -73.307000 	
-8.039020 	 -73.211000 	
-8.029015 	 -73.132000 	
-8.019010 	 -73.037000 	
-8.009005 	 -72.941000 	
-7.998999 	 -72.862000 	
-7.988994 	 -72.767000 	
-7.978989 	 -72.671000 	
-7.968984 	 -72.591000 	
-7.958979 	 -72.493000 	
-7.948974 	 -72.397000 	
-7.938969 	 -72.304000 	
-7.928964 	 -72.212000 	
-7.918959 	 -72.118000 	
-7.908954 	 -72.038000 	
-7.898949 	 -71.942000 	
-7.888944 	 -71.846000 	
-7.878939 	 -71.766000 	
-7.868934 	 -71.670000 	
-7.858929 	 -71.574000 	
-7.848924 	 -71.477000 	
-7.838919 	 -71.397000 	
-7.828914 	 -71.301000 	
-7.818909 	 -71.206000 	
-7.808904 	 -71.111000 	
-7.798899 	 -71.032000 	
-7.788894 	 -70.939000 	
-7.778889 	 -70.845000 	
-7.768884 	 -70.750000 	
-7.758879 	 -70.670000 	
-7.748874 	 -70.574000 	
-7.738869 	 -70.478000 	
-7.728864 	 -70.399000 	
-7.718859 	 -70.303000 	
-7.708854 	 -70.207000 	
-7.698849 	 -70.109000 	
-7.688844 	 -70.028000 	
-7.678839 	 -69.933000 	
-7.668834 	 -69.838000 	
-7.658829 	 -69.760000 	
-7.648824 	 -69.664000 	
-7.638819 	 -69.567000 	
-7.628814 	 -69.469000 	
-7.618809 	 -69.390000 	
-7.608804 	 -69.294000 	
-7.598799 	 -69.198000 	
-7.588794 	 -69.119000 	
-7.578789 	 -69.023000 	
-7.568784 	 -68.928000 	
-7.558779 	 -68.834000 	
-7.548774 	 -68.740000 	
-7.538769 	 -68.662000 	
-7.528764 	 -68.566000 	
-7.518759 	 -68.470000 	
-7.508754 	 -68.390000 	
-7.498749 	 -68.294000 	
-7.488744 	 -68.199000 	
-7.478739 	 -68.103000 	
-7.468734 	 -68.007000 	
-7.458729 	 -67.928000 	
-7.448724 	 -67.832000 	
-7.438719 	 -67.736000 	
-7.428714 	 -67.640000 	
-7.418709 	 -67.560000 	
-7.408704 	 -67.465000 	
-7.398699 	 -67.369000 	
-7.388694 	 -67.274000 	
-7.378689 	 -67.195000 	
-7.368684 	 -67.099000 	
-7.358679 	 -67.003000 	
-7.348674 	 -66.923000 	
-7.338669 	 -66.827000 	
-7.328664 	 -66.731000 	
-7.318659 	 -66.636000 	
-7.308654 	 -66.556000 	
-7.298649 	 -66.460000 	
-7.288644 	 -66.366000 	
-7.278639 	 -66.288000 	
-7.268634 	 -66.192000 	
-7.258629 	 -66.097000 	
-7.248624 	 -66.001000 	
-7.238619 	 -65.921000 	
-7.228614 	 -65.825000 	
-7.218609 	 -65.728000 	
-7.208604 	 -65.633000 	
-7.198599 	 -65.553000 	
-7.188594 	 -65.457000 	
-7.178589 	 -65.362000 	
-7.168584 	 -65.266000 	
-7.158579 	 -65.186000 	
-7.148574 	 -65.090000 	
-7.138569 	 -64.994000 	
-7.128564 	 -64.898000 	
-7.118559 	 -64.818000 	
-7.108554 	 -64.723000 	
-7.098549 	 -64.627000 	
-7.088544 	 -64.530000 	
-7.078539 	 -64.450000 	
-7.068534 	 -64.354000 	
-7.058529 	 -64.259000 	
-7.048524 	 -64.163000 	
-7.038519 	 -64.084000 	
-7.028514 	 -63.989000 	
-7.018509 	 -63.894000 	
-7.008504 	 -63.814000 	
-6.998499 	 -63.719000 	
-6.988494 	 -63.623000 	
-6.978489 	 -63.527000 	
-6.968484 	 -63.447000 	
-6.958479 	 -63.352000 	
-6.948474 	 -63.257000 	
-6.938469 	 -63.178000 	
-6.928464 	 -63.084000 	
-6.918459 	 -62.989000 	
-6.908454 	 -62.892000 	
-6.898449 	 -62.812000 	
-6.888444 	 -62.715000 	
-6.878439 	 -62.619000 	
-6.868434 	 -62.523000 	
-6.858429 	 -62.443000 	
-6.848424 	 -62.347000 	
-6.838419 	 -62.251000 	
-6.828414 	 -62.154000 	
-6.818409 	 -62.074000 	
-6.808404 	 -61.979000 	
-6.798399 	 -61.883000 	
-6.788394 	 -61.787000 	
-6.778389 	 -61.706000 	
-6.768384 	 -61.610000 	
-6.758379 	 -61.514000 	
-6.748374 	 -61.418000 	
-6.738369 	 -61.338000 	
-6.728364 	 -61.242000 	
-6.718359 	 -61.146000 	
-6.708354 	 -61.050000 	
-6.698349 	 -60.970000 	
-6.688344 	 -60.874000 	
-6.678339 	 -60.778000 	
-6.668334 	 -60.698000 	
-6.658329 	 -60.601000 	
-6.648324 	 -60.505000 	
-6.638319 	 -60.409000 	
-6.628314 	 -60.329000 	
-6.618309 	 -60.233000 	
-6.608304 	 -60.136000 	
-6.598299 	 -60.056000 	
-6.588294 	 -59.960000 	
-6.578289 	 -59.865000 	
-6.568284 	 -59.769000 	
-6.558279 	 -59.689000 	
-6.548274 	 -59.593000 	
-6.538269 	 -59.498000 	
-6.528264 	 -59.403000 	
-6.518259 	 -59.324000 	
-6.508254 	 -59.227000 	
-6.498249 	 -59.129000 	
-6.488244 	 -59.032000 	
-6.478239 	 -58.939000 	
-6.468234 	 -58.846000 	
-6.458229 	 -58.767000 	
-6.448224 	 -58.671000 	
-6.438219 	 -58.575000 	
-6.428214 	 -58.494000 	
-6.418209 	 -58.398000 	
-6.408204 	 -58.302000 	
-6.398199 	 -58.221000 	
-6.388194 	 -58.124000 	
-6.378189 	 -58.028000 	
-6.368184 	 -57.932000 	
-6.358179 	 -57.852000 	
-6.348174 	 -57.757000 	
-6.338169 	 -57.661000 	
-6.328164 	 -57.564000 	
-6.318159 	 -57.468000 	
-6.308154 	 -57.390000 	
-6.298149 	 -57.295000 	
-6.288144 	 -57.199000 	
-6.278139 	 -57.103000 	
-6.268134 	 -57.023000 	
-6.258129 	 -56.927000 	
-6.248124 	 -56.831000 	
-6.238119 	 -56.735000 	
-6.228114 	 -56.656000 	
-6.218109 	 -56.560000 	
-6.208104 	 -56.464000 	
-6.198099 	 -56.368000 	
-6.188094 	 -56.289000 	
-6.178089 	 -56.193000 	
-6.168084 	 -56.096000 	
-6.158079 	 -56.015000 	
-6.148074 	 -55.918000 	
-6.138069 	 -55.823000 	
-6.128064 	 -55.727000 	
-6.118059 	 -55.648000 	
-6.108054 	 -55.552000 	
-6.098049 	 -55.456000 	
-6.088044 	 -55.376000 	
-6.078039 	 -55.279000 	
-6.068034 	 -55.183000 	
-6.058029 	 -55.103000 	
-6.048024 	 -55.007000 	
-6.038019 	 -54.911000 	
-6.028014 	 -54.814000 	
-6.018009 	 -54.734000 	
-6.008004 	 -54.638000 	
-5.997999 	 -54.542000 	
-5.987994 	 -54.446000 	
-5.977989 	 -54.366000 	
-5.967984 	 -54.271000 	
-5.957979 	 -54.176000 	
-5.947974 	 -54.082000 	
-5.937969 	 -54.001000 	
-5.927964 	 -53.904000 	
-5.917959 	 -53.806000 	
-5.907954 	 -53.710000 	
-5.897949 	 -53.630000 	
-5.887944 	 -53.534000 	
-5.877939 	 -53.438000 	
-5.867934 	 -53.341000 	
-5.857929 	 -53.261000 	
-5.847924 	 -53.165000 	
-5.837919 	 -53.071000 	
-5.827914 	 -52.977000 	
-5.817909 	 -52.897000 	
-5.807904 	 -52.801000 	
-5.797899 	 -52.705000 	
-5.787894 	 -52.608000 	
-5.777889 	 -52.528000 	
-5.767884 	 -52.433000 	
-5.757879 	 -52.337000 	
-5.747874 	 -52.257000 	
-5.737869 	 -52.162000 	
-5.727864 	 -52.066000 	
-5.717859 	 -51.986000 	
-5.707854 	 -51.889000 	
-5.697849 	 -51.793000 	
-5.687844 	 -51.697000 	
-5.677839 	 -51.617000 	
-5.667834 	 -51.521000 	
-5.657829 	 -51.425000 	
-5.647824 	 -51.329000 	
-5.637819 	 -51.248000 	
-5.627814 	 -51.152000 	
-5.617809 	 -51.056000 	
-5.607804 	 -50.960000 	
-5.597799 	 -50.880000 	
-5.587794 	 -50.783000 	
-5.577789 	 -50.687000 	
-5.567784 	 -50.591000 	
-5.557779 	 -50.511000 	
-5.547774 	 -50.415000 	
-5.537769 	 -50.318000 	
-5.527764 	 -50.238000 	
-5.517759 	 -50.142000 	
-5.507754 	 -50.046000 	
-5.497749 	 -49.950000 	
-5.487744 	 -49.869000 	
-5.477739 	 -49.773000 	
-5.467734 	 -49.677000 	
-5.457729 	 -49.581000 	
-5.447724 	 -49.501000 	
-5.437719 	 -49.405000 	
-5.427714 	 -49.308000 	
-5.417709 	 -49.212000 	
-5.407704 	 -49.132000 	
-5.397699 	 -49.036000 	
-5.387694 	 -48.940000 	
-5.377689 	 -48.844000 	
-5.367684 	 -48.763000 	
-5.357679 	 -48.667000 	
-5.347674 	 -48.570000 	
-5.337669 	 -48.490000 	
-5.327664 	 -48.394000 	
-5.317659 	 -48.299000 	
-5.307654 	 -48.219000 	
-5.297649 	 -48.122000 	
-5.287644 	 -48.025000 	
-5.277639 	 -47.930000 	
-5.267634 	 -47.851000 	
-5.257629 	 -47.756000 	
-5.247624 	 -47.660000 	
-5.237619 	 -47.580000 	
-5.227614 	 -47.484000 	
-5.217609 	 -47.387000 	
-5.207604 	 -47.291000 	
-5.197599 	 -47.211000 	
-5.187594 	 -47.114000 	
-5.177589 	 -47.018000 	
-5.167584 	 -46.921000 	
-5.157579 	 -46.841000 	
-5.147574 	 -46.745000 	
-5.137569 	 -46.649000 	
-5.127564 	 -46.553000 	
-5.117559 	 -46.472000 	
-5.107554 	 -46.376000 	
-5.097549 	 -46.280000 	
-5.087544 	 -46.184000 	
-5.077539 	 -46.104000 	
-5.067534 	 -46.007000 	
-5.057529 	 -45.911000 	
-5.047524 	 -45.830000 	
-5.037519 	 -45.734000 	
-5.027514 	 -45.638000 	
-5.017509 	 -45.542000 	
-5.007504 	 -45.462000 	
-4.997499 	 -45.365000 	
-4.987494 	 -45.269000 	
-4.977489 	 -45.173000 	
-4.967484 	 -45.092000 	
-4.957479 	 -44.996000 	
-4.947474 	 -44.900000 	
-4.937469 	 -44.805000 	
-4.927464 	 -44.725000 	
-4.917459 	 -44.629000 	
-4.907454 	 -44.532000 	
-4.897449 	 -44.452000 	
-4.887444 	 -44.355000 	
-4.877439 	 -44.258000 	
-4.867434 	 -44.162000 	
-4.857429 	 -44.081000 	
-4.847424 	 -43.983000 	
-4.837419 	 -43.885000 	
-4.827414 	 -43.804000 	
-4.817409 	 -43.708000 	
-4.807404 	 -43.611000 	
-4.797399 	 -43.515000 	
-4.787394 	 -43.436000 	
-4.777389 	 -43.342000 	
-4.767384 	 -43.245000 	
-4.757379 	 -43.165000 	
-4.747374 	 -43.069000 	
-4.737369 	 -42.972000 	
-4.727364 	 -42.875000 	
-4.717359 	 -42.795000 	
-4.707354 	 -42.698000 	
-4.697349 	 -42.602000 	
-4.687344 	 -42.506000 	
-4.677339 	 -42.425000 	
-4.667334 	 -42.329000 	
-4.657329 	 -42.232000 	
-4.647324 	 -42.135000 	
-4.637319 	 -42.055000 	
-4.627314 	 -41.958000 	
-4.617309 	 -41.862000 	
-4.607304 	 -41.781000 	
-4.597299 	 -41.684000 	
-4.587294 	 -41.587000 	
-4.577289 	 -41.491000 	
-4.567284 	 -41.395000 	
-4.557279 	 -41.314000 	
-4.547274 	 -41.218000 	
-4.537269 	 -41.122000 	
-4.527264 	 -41.026000 	
-4.517259 	 -40.945000 	
-4.507254 	 -40.848000 	
-4.497249 	 -40.752000 	
-4.487244 	 -40.672000 	
-4.477239 	 -40.576000 	
-4.467234 	 -40.480000 	
-4.457229 	 -40.400000 	
-4.447224 	 -40.303000 	
-4.437219 	 -40.205000 	
-4.427214 	 -40.107000 	
-4.417209 	 -40.025000 	
-4.407204 	 -39.929000 	
-4.397199 	 -39.834000 	
-4.387194 	 -39.740000 	
-4.377189 	 -39.659000 	
-4.367184 	 -39.562000 	
-4.357179 	 -39.465000 	
-4.347174 	 -39.385000 	
-4.337169 	 -39.289000 	
-4.327164 	 -39.193000 	
-4.317159 	 -39.096000 	
-4.307154 	 -39.016000 	
-4.297149 	 -38.919000 	
-4.287144 	 -38.823000 	
-4.277139 	 -38.726000 	
-4.267134 	 -38.631000 	
-4.257129 	 -38.552000 	
-4.247124 	 -38.457000 	
-4.237119 	 -38.361000 	
-4.227114 	 -38.264000 	
-4.217109 	 -38.184000 	
-4.207104 	 -38.087000 	
-4.197099 	 -37.990000 	
-4.187094 	 -37.893000 	
-4.177089 	 -37.813000 	
-4.167084 	 -37.716000 	
-4.157079 	 -37.620000 	
-4.147074 	 -37.539000 	
-4.137069 	 -37.443000 	
-4.127064 	 -37.347000 	
-4.117059 	 -37.251000 	
-4.107054 	 -37.171000 	
-4.097049 	 -37.075000 	
-4.087044 	 -36.978000 	
-4.077039 	 -36.898000 	
-4.067034 	 -36.801000 	
-4.057029 	 -36.705000 	
-4.047024 	 -36.608000 	
-4.037019 	 -36.528000 	
-4.027014 	 -36.431000 	
-4.017009 	 -36.335000 	
-4.007004 	 -36.255000 	
-3.996998 	 -36.158000 	
-3.986993 	 -36.061000 	
-3.976988 	 -35.964000 	
-3.966983 	 -35.884000 	
-3.956978 	 -35.788000 	
-3.946973 	 -35.691000 	
-3.936968 	 -35.610000 	
-3.926963 	 -35.512000 	
-3.916958 	 -35.414000 	
-3.906953 	 -35.318000 	
-3.896948 	 -35.239000 	
-3.886943 	 -35.144000 	
-3.876938 	 -35.048000 	
-3.866933 	 -34.952000 	
-3.856928 	 -34.855000 	
-3.846923 	 -34.775000 	
-3.836918 	 -34.678000 	
-3.826913 	 -34.581000 	
-3.816908 	 -34.485000 	
-3.806903 	 -34.404000 	
-3.796898 	 -34.308000 	
-3.786893 	 -34.212000 	
-3.776888 	 -34.117000 	
-3.766883 	 -34.038000 	
-3.756878 	 -33.943000 	
-3.746873 	 -33.847000 	
-3.736868 	 -33.751000 	
-3.726863 	 -33.670000 	
-3.716858 	 -33.573000 	
-3.706853 	 -33.476000 	
-3.696848 	 -33.394000 	
-3.686843 	 -33.297000 	
-3.676838 	 -33.200000 	
-3.666833 	 -33.104000 	
-3.656828 	 -33.024000 	
-3.646823 	 -32.927000 	
-3.636818 	 -32.831000 	
-3.626813 	 -32.750000 	
-3.616808 	 -32.653000 	
-3.606803 	 -32.557000 	
-3.596798 	 -32.460000 	
-3.586793 	 -32.380000 	
-3.576788 	 -32.283000 	
-3.566783 	 -32.187000 	
-3.556778 	 -32.106000 	
-3.546773 	 -32.009000 	
-3.536768 	 -31.913000 	
-3.526763 	 -31.819000 	
-3.516758 	 -31.723000 	
-3.506753 	 -31.642000 	
-3.496748 	 -31.544000 	
-3.486743 	 -31.446000 	
-3.476738 	 -31.350000 	
-3.466733 	 -31.269000 	
-3.456728 	 -31.172000 	
-3.446723 	 -31.075000 	
-3.436718 	 -30.995000 	
-3.426713 	 -30.898000 	
-3.416708 	 -30.802000 	
-3.406703 	 -30.705000 	
-3.396698 	 -30.625000 	
-3.386693 	 -30.528000 	
-3.376688 	 -30.431000 	
-3.366683 	 -30.334000 	
-3.356678 	 -30.254000 	
-3.346673 	 -30.160000 	
-3.336668 	 -30.065000 	
-3.326663 	 -29.968000 	
-3.316658 	 -29.888000 	
-3.306653 	 -29.791000 	
-3.296648 	 -29.695000 	
-3.286643 	 -29.615000 	
-3.276638 	 -29.518000 	
-3.266633 	 -29.422000 	
-3.256628 	 -29.325000 	
-3.246623 	 -29.245000 	
-3.236618 	 -29.148000 	
-3.226613 	 -29.051000 	
-3.216608 	 -28.954000 	
-3.206603 	 -28.874000 	
-3.196598 	 -28.777000 	
-3.186593 	 -28.680000 	
-3.176588 	 -28.583000 	
-3.166583 	 -28.503000 	
-3.156578 	 -28.406000 	
-3.146573 	 -28.309000 	
-3.136568 	 -28.213000 	
-3.126563 	 -28.132000 	
-3.116558 	 -28.036000 	
-3.106553 	 -27.939000 	
-3.096548 	 -27.858000 	
-3.086543 	 -27.761000 	
-3.076538 	 -27.665000 	
-3.066533 	 -27.568000 	
-3.056528 	 -27.488000 	
-3.046523 	 -27.391000 	
-3.036518 	 -27.295000 	
-3.026513 	 -27.214000 	
-3.016508 	 -27.115000 	
-3.006503 	 -27.016000 	
-2.996498 	 -26.920000 	
-2.986493 	 -26.840000 	
-2.976488 	 -26.744000 	
-2.966483 	 -26.649000 	
-2.956478 	 -26.554000 	
-2.946473 	 -26.475000 	
-2.936468 	 -26.377000 	
-2.926463 	 -26.278000 	
-2.916458 	 -26.179000 	
-2.906453 	 -26.100000 	
-2.896448 	 -26.005000 	
-2.886443 	 -25.911000 	
-2.876438 	 -25.830000 	
-2.866433 	 -25.732000 	
-2.856428 	 -25.634000 	
-2.846423 	 -25.535000 	
-2.836418 	 -25.454000 	
-2.826413 	 -25.357000 	
-2.816408 	 -25.260000 	
-2.806403 	 -25.164000 	
-2.796398 	 -25.083000 	
-2.786393 	 -24.988000 	
-2.776388 	 -24.893000 	
-2.766383 	 -24.796000 	
-2.756378 	 -24.715000 	
-2.746373 	 -24.618000 	
-2.736368 	 -24.522000 	
-2.726363 	 -24.424000 	
-2.716358 	 -24.344000 	
-2.706353 	 -24.247000 	
-2.696348 	 -24.150000 	
-2.686343 	 -24.053000 	
-2.676338 	 -23.972000 	
-2.666333 	 -23.876000 	
-2.656328 	 -23.779000 	
-2.646323 	 -23.682000 	
-2.636318 	 -23.601000 	
-2.626313 	 -23.504000 	
-2.616308 	 -23.407000 	
-2.606303 	 -23.327000 	
-2.596298 	 -23.230000 	
-2.586293 	 -23.133000 	
-2.576288 	 -23.036000 	
-2.566283 	 -22.955000 	
-2.556278 	 -22.858000 	
-2.546273 	 -22.761000 	
-2.536268 	 -22.664000 	
-2.526263 	 -22.583000 	
-2.516258 	 -22.487000 	
-2.506253 	 -22.390000 	
-2.496248 	 -22.310000 	
-2.486243 	 -22.214000 	
-2.476238 	 -22.117000 	
-2.466233 	 -22.021000 	
-2.456228 	 -21.940000 	
-2.446223 	 -21.843000 	
-2.436218 	 -21.746000 	
-2.426213 	 -21.650000 	
-2.416208 	 -21.570000 	
-2.406203 	 -21.474000 	
-2.396198 	 -21.379000 	
-2.386193 	 -21.282000 	
-2.376188 	 -21.201000 	
-2.366183 	 -21.104000 	
-2.356178 	 -21.007000 	
-2.346173 	 -20.910000 	
-2.336168 	 -20.830000 	
