X-channel SetVoltage(V) vs Field(mT)
-9.899950 	 -10.342000 	
-9.889945 	 -10.332000 	
-9.879940 	 -10.322000 	
-9.869935 	 -10.313000 	
-9.859930 	 -10.302000 	
-9.849925 	 -10.292000 	
-9.839920 	 -10.283000 	
-9.829915 	 -10.272000 	
-9.819910 	 -10.261000 	
-9.809905 	 -10.252000 	
-9.799900 	 -10.241000 	
-9.789895 	 -10.229000 	
-9.779890 	 -10.220000 	
-9.769885 	 -10.208000 	
-9.759880 	 -10.196000 	
-9.749875 	 -10.187000 	
-9.739870 	 -10.175000 	
-9.729865 	 -10.163000 	
-9.719860 	 -10.154000 	
-9.709855 	 -10.143000 	
-9.699850 	 -10.132000 	
-9.689845 	 -10.123000 	
-9.679840 	 -10.113000 	
-9.669835 	 -10.103000 	
-9.659830 	 -10.094000 	
-9.649825 	 -10.083000 	
-9.639820 	 -10.072000 	
-9.629815 	 -10.062000 	
-9.619810 	 -10.052000 	
-9.609805 	 -10.041000 	
-9.599800 	 -10.030000 	
-9.589795 	 -10.020000 	
-9.579790 	 -10.009000 	
-9.569785 	 -9.998000 	
-9.559780 	 -9.987000 	
-9.549775 	 -9.978000 	
-9.539770 	 -9.967000 	
-9.529765 	 -9.955000 	
-9.519760 	 -9.946000 	
-9.509755 	 -9.935000 	
-9.499750 	 -9.924000 	
-9.489745 	 -9.915000 	
-9.479740 	 -9.904000 	
-9.469735 	 -9.893000 	
-9.459730 	 -9.885000 	
-9.449725 	 -9.874000 	
-9.439720 	 -9.863000 	
-9.429715 	 -9.854000 	
-9.419710 	 -9.843000 	
-9.409705 	 -9.832000 	
-9.399700 	 -9.822000 	
-9.389695 	 -9.812000 	
-9.379690 	 -9.801000 	
-9.369685 	 -9.790000 	
-9.359680 	 -9.781000 	
-9.349675 	 -9.770000 	
-9.339670 	 -9.759000 	
-9.329665 	 -9.749000 	
-9.319660 	 -9.738000 	
-9.309655 	 -9.727000 	
-9.299650 	 -9.717000 	
-9.289645 	 -9.706000 	
-9.279640 	 -9.695000 	
-9.269635 	 -9.686000 	
-9.259630 	 -9.675000 	
-9.249625 	 -9.664000 	
-9.239620 	 -9.655000 	
-9.229615 	 -9.644000 	
-9.219610 	 -9.634000 	
-9.209605 	 -9.625000 	
-9.199600 	 -9.614000 	
-9.189595 	 -9.603000 	
-9.179590 	 -9.592000 	
-9.169585 	 -9.583000 	
-9.159580 	 -9.572000 	
-9.149575 	 -9.560000 	
-9.139570 	 -9.551000 	
-9.129565 	 -9.540000 	
-9.119560 	 -9.528000 	
-9.109555 	 -9.519000 	
-9.099550 	 -9.508000 	
-9.089545 	 -9.496000 	
-9.079540 	 -9.487000 	
-9.069535 	 -9.476000 	
-9.059530 	 -9.465000 	
-9.049525 	 -9.456000 	
-9.039520 	 -9.444000 	
-9.029515 	 -9.434000 	
-9.019510 	 -9.425000 	
-9.009505 	 -9.414000 	
-8.999500 	 -9.403000 	
-8.989495 	 -9.394000 	
-8.979490 	 -9.383000 	
-8.969485 	 -9.373000 	
-8.959480 	 -9.364000 	
-8.949475 	 -9.353000 	
-8.939470 	 -9.342000 	
-8.929465 	 -9.333000 	
-8.919460 	 -9.322000 	
-8.909455 	 -9.311000 	
-8.899450 	 -9.302000 	
-8.889445 	 -9.290000 	
-8.879440 	 -9.279000 	
-8.869435 	 -9.267000 	
-8.859430 	 -9.258000 	
-8.849425 	 -9.247000 	
-8.839420 	 -9.236000 	
-8.829415 	 -9.226000 	
-8.819410 	 -9.215000 	
-8.809405 	 -9.204000 	
-8.799400 	 -9.194000 	
-8.789395 	 -9.185000 	
-8.779390 	 -9.174000 	
-8.769385 	 -9.163000 	
-8.759380 	 -9.154000 	
-8.749375 	 -9.143000 	
-8.739370 	 -9.132000 	
-8.729365 	 -9.123000 	
-8.719360 	 -9.112000 	
-8.709355 	 -9.101000 	
-8.699350 	 -9.092000 	
-8.689345 	 -9.081000 	
-8.679340 	 -9.070000 	
-8.669335 	 -9.060000 	
-8.659330 	 -9.049000 	
-8.649325 	 -9.038000 	
-8.639320 	 -9.028000 	
-8.629315 	 -9.017000 	
-8.619310 	 -9.006000 	
-8.609305 	 -8.996000 	
-8.599300 	 -8.985000 	
-8.589295 	 -8.974000 	
-8.579290 	 -8.965000 	
-8.569285 	 -8.954000 	
-8.559280 	 -8.943000 	
-8.549275 	 -8.934000 	
-8.539270 	 -8.924000 	
-8.529265 	 -8.913000 	
-8.519260 	 -8.904000 	
-8.509255 	 -8.893000 	
-8.499250 	 -8.882000 	
-8.489245 	 -8.871000 	
-8.479240 	 -8.862000 	
-8.469235 	 -8.851000 	
-8.459230 	 -8.840000 	
-8.449225 	 -8.830000 	
-8.439220 	 -8.819000 	
-8.429215 	 -8.808000 	
-8.419210 	 -8.799000 	
-8.409205 	 -8.787000 	
-8.399200 	 -8.776000 	
-8.389195 	 -8.767000 	
-8.379190 	 -8.755000 	
-8.369185 	 -8.744000 	
-8.359180 	 -8.735000 	
-8.349175 	 -8.724000 	
-8.339170 	 -8.713000 	
-8.329165 	 -8.704000 	
-8.319160 	 -8.693000 	
-8.309155 	 -8.683000 	
-8.299150 	 -8.672000 	
-8.289145 	 -8.663000 	
-8.279140 	 -8.652000 	
-8.269135 	 -8.641000 	
-8.259130 	 -8.632000 	
-8.249125 	 -8.621000 	
-8.239120 	 -8.609000 	
-8.229115 	 -8.600000 	
-8.219110 	 -8.589000 	
-8.209105 	 -8.578000 	
-8.199100 	 -8.568000 	
-8.189095 	 -8.557000 	
-8.179090 	 -8.546000 	
-8.169085 	 -8.537000 	
-8.159080 	 -8.526000 	
-8.149075 	 -8.514000 	
-8.139070 	 -8.505000 	
-8.129065 	 -8.494000 	
-8.119060 	 -8.483000 	
-8.109055 	 -8.472000 	
-8.099050 	 -8.463000 	
-8.089045 	 -8.453000 	
-8.079040 	 -8.442000 	
-8.069035 	 -8.433000 	
-8.059030 	 -8.423000 	
-8.049025 	 -8.412000 	
-8.039020 	 -8.403000 	
-8.029015 	 -8.392000 	
-8.019010 	 -8.380000 	
-8.009005 	 -8.371000 	
-7.998999 	 -8.360000 	
-7.988994 	 -8.349000 	
-7.978989 	 -8.339000 	
-7.968984 	 -8.328000 	
-7.958979 	 -8.317000 	
-7.948974 	 -8.305000 	
-7.938969 	 -8.296000 	
-7.928964 	 -8.285000 	
-7.918959 	 -8.274000 	
-7.908954 	 -8.265000 	
-7.898949 	 -8.254000 	
-7.888944 	 -8.243000 	
-7.878939 	 -8.234000 	
-7.868934 	 -8.224000 	
-7.858929 	 -8.213000 	
-7.848924 	 -8.204000 	
-7.838919 	 -8.193000 	
-7.828914 	 -8.182000 	
-7.818909 	 -8.173000 	
-7.808904 	 -8.162000 	
-7.798899 	 -8.151000 	
-7.788894 	 -8.142000 	
-7.778889 	 -8.131000 	
-7.768884 	 -8.120000 	
-7.758879 	 -8.110000 	
-7.748874 	 -8.099000 	
-7.738869 	 -8.088000 	
-7.728864 	 -8.079000 	
-7.718859 	 -8.067000 	
-7.708854 	 -8.056000 	
-7.698849 	 -8.044000 	
-7.688844 	 -8.035000 	
-7.678839 	 -8.025000 	
-7.668834 	 -8.014000 	
-7.658829 	 -8.004000 	
-7.648824 	 -7.994000 	
-7.638819 	 -7.983000 	
-7.628814 	 -7.972000 	
-7.618809 	 -7.963000 	
-7.608804 	 -7.952000 	
-7.598799 	 -7.941000 	
-7.588794 	 -7.932000 	
-7.578789 	 -7.921000 	
-7.568784 	 -7.911000 	
-7.558779 	 -7.901000 	
-7.548774 	 -7.890000 	
-7.538769 	 -7.879000 	
-7.528764 	 -7.869000 	
-7.518759 	 -7.858000 	
-7.508754 	 -7.846000 	
-7.498749 	 -7.837000 	
-7.488744 	 -7.825000 	
-7.478739 	 -7.814000 	
-7.468734 	 -7.805000 	
-7.458729 	 -7.794000 	
-7.448724 	 -7.783000 	
-7.438719 	 -7.774000 	
-7.428714 	 -7.763000 	
-7.418709 	 -7.752000 	
-7.408704 	 -7.742000 	
-7.398699 	 -7.733000 	
-7.388694 	 -7.722000 	
-7.378689 	 -7.711000 	
-7.368684 	 -7.702000 	
-7.358679 	 -7.691000 	
-7.348674 	 -7.680000 	
-7.338669 	 -7.671000 	
-7.328664 	 -7.660000 	
-7.318659 	 -7.648000 	
-7.308654 	 -7.639000 	
-7.298649 	 -7.627000 	
-7.288644 	 -7.616000 	
-7.278639 	 -7.605000 	
-7.268634 	 -7.596000 	
-7.258629 	 -7.585000 	
-7.248624 	 -7.574000 	
-7.238619 	 -7.564000 	
-7.228614 	 -7.554000 	
-7.218609 	 -7.543000 	
-7.208604 	 -7.532000 	
-7.198599 	 -7.523000 	
-7.188594 	 -7.512000 	
-7.178589 	 -7.501000 	
-7.168584 	 -7.492000 	
-7.158579 	 -7.481000 	
-7.148574 	 -7.471000 	
-7.138569 	 -7.462000 	
-7.128564 	 -7.451000 	
-7.118559 	 -7.440000 	
-7.108554 	 -7.430000 	
-7.098549 	 -7.419000 	
-7.088544 	 -7.407000 	
-7.078539 	 -7.398000 	
-7.068534 	 -7.387000 	
-7.058529 	 -7.376000 	
-7.048524 	 -7.366000 	
-7.038519 	 -7.355000 	
-7.028514 	 -7.344000 	
-7.018509 	 -7.334000 	
-7.008504 	 -7.323000 	
-6.998499 	 -7.313000 	
-6.988494 	 -7.303000 	
-6.978489 	 -7.293000 	
-6.968484 	 -7.282000 	
-6.958479 	 -7.273000 	
-6.948474 	 -7.262000 	
-6.938469 	 -7.251000 	
-6.928464 	 -7.242000 	
-6.918459 	 -7.232000 	
-6.908454 	 -7.221000 	
-6.898449 	 -7.210000 	
-6.888444 	 -7.200000 	
-6.878439 	 -7.189000 	
-6.868434 	 -7.178000 	
-6.858429 	 -7.169000 	
-6.848424 	 -7.157000 	
-6.838419 	 -7.146000 	
-6.828414 	 -7.135000 	
-6.818409 	 -7.125000 	
-6.808404 	 -7.114000 	
-6.798399 	 -7.103000 	
-6.788394 	 -7.094000 	
-6.778389 	 -7.083000 	
-6.768384 	 -7.072000 	
-6.758379 	 -7.063000 	
-6.748374 	 -7.052000 	
-6.738369 	 -7.041000 	
-6.728364 	 -7.032000 	
-6.718359 	 -7.021000 	
-6.708354 	 -7.010000 	
-6.698349 	 -7.001000 	
-6.688344 	 -6.991000 	
-6.678339 	 -6.980000 	
-6.668334 	 -6.971000 	
-6.658329 	 -6.959000 	
-6.648324 	 -6.948000 	
-6.638319 	 -6.939000 	
-6.628314 	 -6.928000 	
-6.618309 	 -6.917000 	
-6.608304 	 -6.905000 	
-6.598299 	 -6.896000 	
-6.588294 	 -6.885000 	
-6.578289 	 -6.874000 	
-6.568284 	 -6.865000 	
-6.558279 	 -6.854000 	
-6.548274 	 -6.843000 	
-6.538269 	 -6.834000 	
-6.528264 	 -6.823000 	
-6.518259 	 -6.812000 	
-6.508254 	 -6.803000 	
-6.498249 	 -6.793000 	
-6.488244 	 -6.782000 	
-6.478239 	 -6.773000 	
-6.468234 	 -6.762000 	
-6.458229 	 -6.751000 	
-6.448224 	 -6.740000 	
-6.438219 	 -6.730000 	
-6.428214 	 -6.719000 	
-6.418209 	 -6.708000 	
-6.408204 	 -6.699000 	
-6.398199 	 -6.688000 	
-6.388194 	 -6.677000 	
-6.378189 	 -6.668000 	
-6.368184 	 -6.657000 	
-6.358179 	 -6.646000 	
-6.348174 	 -6.637000 	
-6.338169 	 -6.626000 	
-6.328164 	 -6.615000 	
-6.318159 	 -6.606000 	
-6.308154 	 -6.595000 	
-6.298149 	 -6.584000 	
-6.288144 	 -6.576000 	
-6.278139 	 -6.565000 	
-6.268134 	 -6.554000 	
-6.258129 	 -6.543000 	
-6.248124 	 -6.534000 	
-6.238119 	 -6.523000 	
-6.228114 	 -6.512000 	
-6.218109 	 -6.503000 	
-6.208104 	 -6.492000 	
-6.198099 	 -6.481000 	
-6.188094 	 -6.472000 	
-6.178089 	 -6.461000 	
-6.168084 	 -6.449000 	
-6.158079 	 -6.440000 	
-6.148074 	 -6.428000 	
-6.138069 	 -6.417000 	
-6.128064 	 -6.407000 	
-6.118059 	 -6.396000 	
-6.108054 	 -6.385000 	
-6.098049 	 -6.375000 	
-6.088044 	 -6.364000 	
-6.078039 	 -6.353000 	
-6.068034 	 -6.343000 	
-6.058029 	 -6.334000 	
-6.048024 	 -6.323000 	
-6.038019 	 -6.313000 	
-6.028014 	 -6.304000 	
-6.018009 	 -6.293000 	
-6.008004 	 -6.282000 	
-5.997999 	 -6.273000 	
-5.987994 	 -6.262000 	
-5.977989 	 -6.251000 	
-5.967984 	 -6.240000 	
-5.957979 	 -6.230000 	
-5.947974 	 -6.219000 	
-5.937969 	 -6.207000 	
-5.927964 	 -6.198000 	
-5.917959 	 -6.186000 	
-5.907954 	 -6.175000 	
-5.897949 	 -6.165000 	
-5.887944 	 -6.154000 	
-5.877939 	 -6.143000 	
-5.867934 	 -6.134000 	
-5.857929 	 -6.123000 	
-5.847924 	 -6.113000 	
-5.837919 	 -6.104000 	
-5.827914 	 -6.093000 	
-5.817909 	 -6.082000 	
-5.807904 	 -6.073000 	
-5.797899 	 -6.063000 	
-5.787894 	 -6.052000 	
-5.777889 	 -6.043000 	
-5.767884 	 -6.032000 	
-5.757879 	 -6.021000 	
-5.747874 	 -6.012000 	
-5.737869 	 -6.001000 	
-5.727864 	 -5.989000 	
-5.717859 	 -5.980000 	
-5.707854 	 -5.968000 	
-5.697849 	 -5.957000 	
-5.687844 	 -5.947000 	
-5.677839 	 -5.936000 	
-5.667834 	 -5.924000 	
-5.657829 	 -5.913000 	
-5.647824 	 -5.904000 	
-5.637819 	 -5.893000 	
-5.627814 	 -5.882000 	
-5.617809 	 -5.874000 	
-5.607804 	 -5.863000 	
-5.597799 	 -5.852000 	
-5.587794 	 -5.841000 	
-5.577789 	 -5.832000 	
-5.567784 	 -5.822000 	
-5.557779 	 -5.811000 	
-5.547774 	 -5.802000 	
-5.537769 	 -5.791000 	
-5.527764 	 -5.780000 	
-5.517759 	 -5.770000 	
-5.507754 	 -5.759000 	
-5.497749 	 -5.747000 	
-5.487744 	 -5.738000 	
-5.477739 	 -5.726000 	
-5.467734 	 -5.715000 	
-5.457729 	 -5.705000 	
-5.447724 	 -5.694000 	
-5.437719 	 -5.683000 	
-5.427714 	 -5.673000 	
-5.417709 	 -5.662000 	
-5.407704 	 -5.652000 	
-5.397699 	 -5.643000 	
-5.387694 	 -5.632000 	
-5.377689 	 -5.622000 	
-5.367684 	 -5.613000 	
-5.357679 	 -5.602000 	
-5.347674 	 -5.592000 	
-5.337669 	 -5.582000 	
-5.327664 	 -5.571000 	
-5.317659 	 -5.560000 	
-5.307654 	 -5.549000 	
-5.297649 	 -5.540000 	
-5.287644 	 -5.529000 	
-5.277639 	 -5.518000 	
-5.267634 	 -5.508000 	
-5.257629 	 -5.496000 	
-5.247624 	 -5.485000 	
-5.237619 	 -5.475000 	
-5.227614 	 -5.464000 	
-5.217609 	 -5.452000 	
-5.207604 	 -5.443000 	
-5.197599 	 -5.432000 	
-5.187594 	 -5.421000 	
-5.177589 	 -5.412000 	
-5.167584 	 -5.402000 	
-5.157579 	 -5.391000 	
-5.147574 	 -5.381000 	
-5.137569 	 -5.372000 	
-5.127564 	 -5.361000 	
-5.117559 	 -5.350000 	
-5.107554 	 -5.341000 	
-5.097549 	 -5.330000 	
-5.087544 	 -5.319000 	
-5.077539 	 -5.310000 	
-5.067534 	 -5.299000 	
-5.057529 	 -5.288000 	
-5.047524 	 -5.278000 	
-5.037519 	 -5.267000 	
-5.027514 	 -5.256000 	
-5.017509 	 -5.246000 	
-5.007504 	 -5.234000 	
-4.997499 	 -5.223000 	
-4.987494 	 -5.214000 	
-4.977489 	 -5.203000 	
-4.967484 	 -5.192000 	
-4.957479 	 -5.183000 	
-4.947474 	 -5.173000 	
-4.937469 	 -5.162000 	
-4.927464 	 -5.151000 	
-4.917459 	 -5.142000 	
-4.907454 	 -5.132000 	
-4.897449 	 -5.121000 	
-4.887444 	 -5.111000 	
-4.877439 	 -5.101000 	
-4.867434 	 -5.090000 	
-4.857429 	 -5.079000 	
-4.847424 	 -5.069000 	
-4.837419 	 -5.058000 	
-4.827414 	 -5.047000 	
-4.817409 	 -5.037000 	
-4.807404 	 -5.026000 	
-4.797399 	 -5.014000 	
-4.787394 	 -5.005000 	
-4.777389 	 -4.993000 	
-4.767384 	 -4.982000 	
-4.757379 	 -4.973000 	
-4.747374 	 -4.962000 	
-4.737369 	 -4.951000 	
-4.727364 	 -4.942000 	
-4.717359 	 -4.932000 	
-4.707354 	 -4.921000 	
-4.697349 	 -4.912000 	
-4.687344 	 -4.901000 	
-4.677339 	 -4.890000 	
-4.667334 	 -4.881000 	
-4.657329 	 -4.870000 	
-4.647324 	 -4.860000 	
-4.637319 	 -4.851000 	
-4.627314 	 -4.840000 	
-4.617309 	 -4.829000 	
-4.607304 	 -4.819000 	
-4.597299 	 -4.807000 	
-4.587294 	 -4.796000 	
-4.577289 	 -4.787000 	
-4.567284 	 -4.775000 	
-4.557279 	 -4.764000 	
-4.547274 	 -4.753000 	
-4.537269 	 -4.744000 	
-4.527264 	 -4.733000 	
-4.517259 	 -4.722000 	
-4.507254 	 -4.713000 	
-4.497249 	 -4.702000 	
-4.487244 	 -4.691000 	
-4.477239 	 -4.680000 	
-4.467234 	 -4.672000 	
-4.457229 	 -4.661000 	
-4.447224 	 -4.650000 	
-4.437219 	 -4.642000 	
-4.427214 	 -4.631000 	
-4.417209 	 -4.620000 	
-4.407204 	 -4.611000 	
-4.397199 	 -4.600000 	
-4.387194 	 -4.589000 	
-4.377189 	 -4.580000 	
-4.367184 	 -4.568000 	
-4.357179 	 -4.557000 	
-4.347174 	 -4.547000 	
-4.337169 	 -4.536000 	
-4.327164 	 -4.525000 	
-4.317159 	 -4.516000 	
-4.307154 	 -4.505000 	
-4.297149 	 -4.493000 	
-4.287144 	 -4.482000 	
-4.277139 	 -4.473000 	
-4.267134 	 -4.462000 	
-4.257129 	 -4.452000 	
-4.247124 	 -4.443000 	
-4.237119 	 -4.433000 	
-4.227114 	 -4.422000 	
-4.217109 	 -4.413000 	
-4.207104 	 -4.403000 	
-4.197099 	 -4.392000 	
-4.187094 	 -4.383000 	
-4.177089 	 -4.373000 	
-4.167084 	 -4.362000 	
-4.157079 	 -4.353000 	
-4.147074 	 -4.342000 	
-4.137069 	 -4.331000 	
-4.127064 	 -4.322000 	
-4.117059 	 -4.310000 	
-4.107054 	 -4.299000 	
-4.097049 	 -4.288000 	
-4.087044 	 -4.278000 	
-4.077039 	 -4.267000 	
-4.067034 	 -4.256000 	
-4.057029 	 -4.247000 	
-4.047024 	 -4.236000 	
-4.037019 	 -4.225000 	
-4.027014 	 -4.216000 	
-4.017009 	 -4.205000 	
-4.007004 	 -4.194000 	
-3.996998 	 -4.185000 	
-3.986993 	 -4.174000 	
-3.976988 	 -4.164000 	
-3.966983 	 -4.155000 	
-3.956978 	 -4.144000 	
-3.946973 	 -4.133000 	
-3.936968 	 -4.124000 	
-3.926963 	 -4.113000 	
-3.916958 	 -4.102000 	
-3.906953 	 -4.092000 	
-3.896948 	 -4.081000 	
-3.886943 	 -4.070000 	
-3.876938 	 -4.060000 	
-3.866933 	 -4.049000 	
-3.856928 	 -4.037000 	
-3.846923 	 -4.028000 	
-3.836918 	 -4.017000 	
-3.826913 	 -4.006000 	
-3.816908 	 -3.997000 	
-3.806903 	 -3.986000 	
-3.796898 	 -3.976000 	
-3.786893 	 -3.965000 	
-3.776888 	 -3.956000 	
-3.766883 	 -3.945000 	
-3.756878 	 -3.934000 	
-3.746873 	 -3.925000 	
-3.736868 	 -3.914000 	
-3.726863 	 -3.903000 	
-3.716858 	 -3.892000 	
-3.706853 	 -3.883000 	
-3.696848 	 -3.872000 	
-3.686843 	 -3.861000 	
-3.676838 	 -3.852000 	
-3.666833 	 -3.840000 	
-3.656828 	 -3.828000 	
-3.646823 	 -3.819000 	
-3.636818 	 -3.808000 	
-3.626813 	 -3.796000 	
-3.616808 	 -3.787000 	
-3.606803 	 -3.776000 	
-3.596798 	 -3.765000 	
-3.586793 	 -3.756000 	
-3.576788 	 -3.745000 	
-3.566783 	 -3.734000 	
-3.556778 	 -3.725000 	
-3.546773 	 -3.714000 	
-3.536768 	 -3.704000 	
-3.526763 	 -3.695000 	
-3.516758 	 -3.685000 	
-3.506753 	 -3.674000 	
-3.496748 	 -3.665000 	
-3.486743 	 -3.654000 	
-3.476738 	 -3.643000 	
-3.466733 	 -3.634000 	
-3.456728 	 -3.622000 	
-3.446723 	 -3.610000 	
-3.436718 	 -3.601000 	
-3.426713 	 -3.589000 	
-3.416708 	 -3.578000 	
-3.406703 	 -3.567000 	
-3.396698 	 -3.558000 	
-3.386693 	 -3.547000 	
-3.376688 	 -3.536000 	
-3.366683 	 -3.527000 	
-3.356678 	 -3.516000 	
-3.346673 	 -3.505000 	
-3.336668 	 -3.494000 	
-3.326663 	 -3.485000 	
-3.316658 	 -3.475000 	
-3.306653 	 -3.464000 	
-3.296648 	 -3.455000 	
-3.286643 	 -3.445000 	
-3.276638 	 -3.434000 	
-3.266633 	 -3.425000 	
-3.256628 	 -3.414000 	
-3.246623 	 -3.403000 	
-3.236618 	 -3.392000 	
-3.226613 	 -3.382000 	
-3.216608 	 -3.370000 	
-3.206603 	 -3.359000 	
-3.196598 	 -3.350000 	
-3.186593 	 -3.338000 	
-3.176588 	 -3.327000 	
-3.166583 	 -3.317000 	
-3.156578 	 -3.306000 	
-3.146573 	 -3.296000 	
-3.136568 	 -3.287000 	
-3.126563 	 -3.276000 	
-3.116558 	 -3.265000 	
-3.106553 	 -3.256000 	
-3.096548 	 -3.245000 	
-3.086543 	 -3.235000 	
-3.076538 	 -3.226000 	
-3.066533 	 -3.215000 	
-3.056528 	 -3.205000 	
-3.046523 	 -3.196000 	
-3.036518 	 -3.185000 	
-3.026513 	 -3.174000 	
-3.016508 	 -3.164000 	
-3.006503 	 -3.153000 	
-2.996498 	 -3.142000 	
-2.986493 	 -3.132000 	
-2.976488 	 -3.120000 	
-2.966483 	 -3.109000 	
-2.956478 	 -3.098000 	
-2.946473 	 -3.088000 	
-2.936468 	 -3.078000 	
-2.926463 	 -3.067000 	
-2.916458 	 -3.058000 	
-2.906453 	 -3.047000 	
-2.896448 	 -3.037000 	
-2.886443 	 -3.029000 	
-2.876438 	 -3.019000 	
-2.866433 	 -3.010000 	
-2.856428 	 -3.002000 	
-2.846423 	 -2.995000 	
-2.836418 	 -2.986000 	
-2.826413 	 -2.977000 	
-2.816408 	 -2.969000 	
-2.806403 	 -2.958000 	
-2.796398 	 -2.948000 	
-2.786393 	 -2.938000 	
-2.776388 	 -2.927000 	
-2.766383 	 -2.915000 	
-2.756378 	 -2.903000 	
-2.746373 	 -2.894000 	
-2.736368 	 -2.882000 	
-2.726363 	 -2.870000 	
-2.716358 	 -2.860000 	
-2.706353 	 -2.849000 	
-2.696348 	 -2.838000 	
-2.686343 	 -2.829000 	
-2.676338 	 -2.819000 	
-2.666333 	 -2.808000 	
-2.656328 	 -2.799000 	
-2.646323 	 -2.789000 	
-2.636318 	 -2.778000 	
-2.626313 	 -2.769000 	
-2.616308 	 -2.758000 	
-2.606303 	 -2.748000 	
-2.596298 	 -2.739000 	
-2.586293 	 -2.728000 	
-2.576288 	 -2.717000 	
-2.566283 	 -2.708000 	
-2.556278 	 -2.696000 	
-2.546273 	 -2.685000 	
-2.536268 	 -2.675000 	
-2.526263 	 -2.663000 	
-2.516258 	 -2.651000 	
-2.506253 	 -2.640000 	
-2.496248 	 -2.630000 	
-2.486243 	 -2.619000 	
-2.476238 	 -2.609000 	
-2.466233 	 -2.600000 	
-2.456228 	 -2.590000 	
-2.446223 	 -2.580000 	
-2.436218 	 -2.571000 	
-2.426213 	 -2.561000 	
-2.416208 	 -2.550000 	
-2.406203 	 -2.541000 	
-2.396198 	 -2.531000 	
-2.386193 	 -2.520000 	
-2.376188 	 -2.509000 	
-2.366183 	 -2.500000 	
-2.356178 	 -2.489000 	
-2.346173 	 -2.478000 	
-2.336168 	 -2.468000 	
-2.326163 	 -2.457000 	
-2.316158 	 -2.446000 	
-2.306153 	 -2.436000 	
-2.296148 	 -2.425000 	
-2.286143 	 -2.413000 	
-2.276138 	 -2.404000 	
-2.266133 	 -2.393000 	
-2.256128 	 -2.382000 	
-2.246123 	 -2.371000 	
-2.236118 	 -2.362000 	
-2.226113 	 -2.352000 	
-2.216108 	 -2.341000 	
-2.206103 	 -2.332000 	
-2.196098 	 -2.321000 	
-2.186093 	 -2.311000 	
-2.176088 	 -2.302000 	
-2.166083 	 -2.290000 	
-2.156078 	 -2.279000 	
-2.146073 	 -2.270000 	
-2.136068 	 -2.259000 	
-2.126063 	 -2.248000 	
-2.116058 	 -2.239000 	
-2.106053 	 -2.228000 	
-2.096048 	 -2.217000 	
-2.086043 	 -2.208000 	
-2.076038 	 -2.196000 	
-2.066033 	 -2.185000 	
-2.056028 	 -2.176000 	
-2.046023 	 -2.164000 	
-2.036018 	 -2.153000 	
-2.026013 	 -2.144000 	
-2.016008 	 -2.133000 	
-2.006003 	 -2.123000 	
-1.995998 	 -2.112000 	
-1.985993 	 -2.103000 	
-1.975988 	 -2.093000 	
-1.965983 	 -2.082000 	
-1.955978 	 -2.073000 	
-1.945973 	 -2.062000 	
-1.935968 	 -2.050000 	
-1.925963 	 -2.041000 	
-1.915958 	 -2.031000 	
-1.905953 	 -2.020000 	
-1.895948 	 -2.011000 	
-1.885943 	 -2.000000 	
-1.875938 	 -1.989000 	
-1.865933 	 -1.979000 	
-1.855928 	 -1.968000 	
-1.845923 	 -1.957000 	
-1.835918 	 -1.947000 	
-1.825913 	 -1.936000 	
-1.815908 	 -1.924000 	
-1.805903 	 -1.915000 	
-1.795898 	 -1.904000 	
-1.785893 	 -1.893000 	
-1.775888 	 -1.884000 	
-1.765883 	 -1.874000 	
-1.755878 	 -1.863000 	
-1.745873 	 -1.854000 	
-1.735868 	 -1.843000 	
-1.725863 	 -1.832000 	
-1.715858 	 -1.822000 	
-1.705853 	 -1.812000 	
-1.695848 	 -1.801000 	
-1.685843 	 -1.792000 	
-1.675838 	 -1.781000 	
-1.665833 	 -1.770000 	
-1.655828 	 -1.759000 	
-1.645823 	 -1.750000 	
-1.635818 	 -1.739000 	
-1.625813 	 -1.728000 	
-1.615808 	 -1.718000 	
-1.605803 	 -1.707000 	
