X-channel SetVoltage(V) vs Field(mT)
-9.949975 	 -166.320000 	
-9.939970 	 -166.230000 	
-9.929965 	 -166.140000 	
-9.919960 	 -166.050000 	
-9.909955 	 -165.960000 	
-9.899950 	 -165.890000 	
-9.889945 	 -165.810000 	
-9.879940 	 -165.720000 	
-9.869935 	 -165.650000 	
-9.859930 	 -165.560000 	
-9.849925 	 -165.480000 	
-9.839920 	 -165.390000 	
-9.829915 	 -165.320000 	
-9.819910 	 -165.230000 	
-9.809905 	 -165.140000 	
-9.799900 	 -165.060000 	
-9.789895 	 -164.970000 	
-9.779890 	 -164.880000 	
-9.769885 	 -164.810000 	
-9.759880 	 -164.710000 	
-9.749875 	 -164.610000 	
-9.739870 	 -164.530000 	
-9.729865 	 -164.430000 	
-9.719860 	 -164.330000 	
-9.709855 	 -164.230000 	
-9.699850 	 -164.130000 	
-9.689845 	 -164.050000 	
-9.679840 	 -163.940000 	
-9.669835 	 -163.830000 	
-9.659830 	 -163.730000 	
-9.649825 	 -163.610000 	
-9.639820 	 -163.490000 	
-9.629815 	 -163.390000 	
-9.619810 	 -163.280000 	
-9.609805 	 -163.170000 	
-9.599800 	 -163.060000 	
-9.589795 	 -162.960000 	
-9.579790 	 -162.850000 	
-9.569785 	 -162.740000 	
-9.559780 	 -162.630000 	
-9.549775 	 -162.530000 	
-9.539770 	 -162.420000 	
-9.529765 	 -162.320000 	
-9.519760 	 -162.200000 	
-9.509755 	 -162.110000 	
-9.499750 	 -161.990000 	
-9.489745 	 -161.880000 	
-9.479740 	 -161.760000 	
-9.469735 	 -161.660000 	
-9.459730 	 -161.530000 	
-9.449725 	 -161.410000 	
-9.439720 	 -161.270000 	
-9.429715 	 -161.160000 	
-9.419710 	 -161.040000 	
-9.409705 	 -160.910000 	
-9.399700 	 -160.790000 	
-9.389695 	 -160.690000 	
-9.379690 	 -160.570000 	
-9.369685 	 -160.440000 	
-9.359680 	 -160.320000 	
-9.349675 	 -160.210000 	
-9.339670 	 -160.080000 	
-9.329665 	 -159.960000 	
-9.319660 	 -159.850000 	
-9.309655 	 -159.720000 	
-9.299650 	 -159.600000 	
-9.289645 	 -159.490000 	
-9.279640 	 -159.370000 	
-9.269635 	 -159.250000 	
-9.259630 	 -159.110000 	
-9.249625 	 -159.000000 	
-9.239620 	 -158.850000 	
-9.229615 	 -158.700000 	
-9.219610 	 -158.590000 	
-9.209605 	 -158.450000 	
-9.199600 	 -158.310000 	
-9.189595 	 -158.180000 	
-9.179590 	 -158.050000 	
-9.169585 	 -157.940000 	
-9.159580 	 -157.810000 	
-9.149575 	 -157.670000 	
-9.139570 	 -157.560000 	
-9.129565 	 -157.420000 	
-9.119560 	 -157.280000 	
-9.109555 	 -157.170000 	
-9.099550 	 -157.030000 	
-9.089545 	 -156.890000 	
-9.079540 	 -156.740000 	
-9.069535 	 -156.620000 	
-9.059530 	 -156.470000 	
-9.049525 	 -156.320000 	
-9.039520 	 -156.190000 	
-9.029515 	 -156.050000 	
-9.019510 	 -155.910000 	
-9.009505 	 -155.770000 	
-8.999500 	 -155.650000 	
-8.989495 	 -155.510000 	
-8.979490 	 -155.360000 	
-8.969485 	 -155.220000 	
-8.959480 	 -155.100000 	
-8.949475 	 -154.950000 	
-8.939470 	 -154.810000 	
-8.929465 	 -154.700000 	
-8.919460 	 -154.560000 	
-8.909455 	 -154.410000 	
-8.899450 	 -154.260000 	
-8.889445 	 -154.090000 	
-8.879440 	 -153.950000 	
-8.869435 	 -153.790000 	
-8.859430 	 -153.640000 	
-8.849425 	 -153.510000 	
-8.839420 	 -153.360000 	
-8.829415 	 -153.220000 	
-8.819410 	 -153.070000 	
-8.809405 	 -152.950000 	
-8.799400 	 -152.800000 	
-8.789395 	 -152.650000 	
-8.779390 	 -152.500000 	
-8.769385 	 -152.370000 	
-8.759380 	 -152.220000 	
-8.749375 	 -152.070000 	
-8.739370 	 -151.930000 	
-8.729365 	 -151.770000 	
-8.719360 	 -151.600000 	
-8.709355 	 -151.450000 	
-8.699350 	 -151.280000 	
-8.689345 	 -151.120000 	
-8.679340 	 -150.970000 	
-8.669335 	 -150.850000 	
-8.659330 	 -150.710000 	
-8.649325 	 -150.560000 	
-8.639320 	 -150.440000 	
-8.629315 	 -150.290000 	
-8.619310 	 -150.130000 	
-8.609305 	 -149.980000 	
-8.599300 	 -149.840000 	
-8.589295 	 -149.680000 	
-8.579290 	 -149.510000 	
-8.569285 	 -149.360000 	
-8.559280 	 -149.180000 	
-8.549275 	 -149.000000 	
-8.539270 	 -148.860000 	
-8.529265 	 -148.700000 	
-8.519260 	 -148.540000 	
-8.509255 	 -148.390000 	
-8.499250 	 -148.260000 	
-8.489245 	 -148.100000 	
-8.479240 	 -147.940000 	
-8.469235 	 -147.810000 	
-8.459230 	 -147.640000 	
-8.449225 	 -147.480000 	
-8.439220 	 -147.320000 	
-8.429215 	 -147.180000 	
-8.419210 	 -147.000000 	
-8.409205 	 -146.820000 	
-8.399200 	 -146.630000 	
-8.389195 	 -146.460000 	
-8.379190 	 -146.320000 	
-8.369185 	 -146.160000 	
-8.359180 	 -146.000000 	
-8.349175 	 -145.840000 	
-8.339170 	 -145.690000 	
-8.329165 	 -145.560000 	
-8.319160 	 -145.400000 	
-8.309155 	 -145.230000 	
-8.299150 	 -145.070000 	
-8.289145 	 -144.930000 	
-8.279140 	 -144.760000 	
-8.269135 	 -144.590000 	
-8.259130 	 -144.400000 	
-8.249125 	 -144.240000 	
-8.239120 	 -144.070000 	
-8.229115 	 -143.890000 	
-8.219110 	 -143.760000 	
-8.209105 	 -143.590000 	
-8.199100 	 -143.420000 	
-8.189095 	 -143.250000 	
-8.179090 	 -143.110000 	
-8.169085 	 -142.940000 	
-8.159080 	 -142.770000 	
-8.149075 	 -142.600000 	
-8.139070 	 -142.460000 	
-8.129065 	 -142.280000 	
-8.119060 	 -142.100000 	
-8.109055 	 -141.940000 	
-8.099050 	 -141.750000 	
-8.089045 	 -141.570000 	
-8.079040 	 -141.400000 	
-8.069035 	 -141.260000 	
-8.059030 	 -141.100000 	
-8.049025 	 -140.930000 	
-8.039020 	 -140.790000 	
-8.029015 	 -140.610000 	
-8.019010 	 -140.430000 	
-8.009005 	 -140.260000 	
-7.998999 	 -140.120000 	
-7.988994 	 -139.940000 	
-7.978989 	 -139.760000 	
-7.968984 	 -139.610000 	
-7.958979 	 -139.420000 	
-7.948974 	 -139.240000 	
-7.938969 	 -139.090000 	
-7.928964 	 -138.920000 	
-7.918959 	 -138.750000 	
-7.908954 	 -138.570000 	
-7.898949 	 -138.430000 	
-7.888944 	 -138.250000 	
-7.878939 	 -138.080000 	
-7.868934 	 -137.910000 	
-7.858929 	 -137.770000 	
-7.848924 	 -137.590000 	
-7.838919 	 -137.410000 	
-7.828914 	 -137.220000 	
-7.818909 	 -137.070000 	
-7.808904 	 -136.880000 	
-7.798899 	 -136.710000 	
-7.788894 	 -136.560000 	
-7.778889 	 -136.390000 	
-7.768884 	 -136.220000 	
-7.758879 	 -136.050000 	
-7.748874 	 -135.910000 	
-7.738869 	 -135.740000 	
-7.728864 	 -135.570000 	
-7.718859 	 -135.430000 	
-7.708854 	 -135.250000 	
-7.698849 	 -135.080000 	
-7.688844 	 -134.900000 	
-7.678839 	 -134.740000 	
-7.668834 	 -134.550000 	
-7.658829 	 -134.370000 	
-7.648824 	 -134.190000 	
-7.638819 	 -134.040000 	
-7.628814 	 -133.870000 	
-7.618809 	 -133.690000 	
-7.608804 	 -133.520000 	
-7.598799 	 -133.370000 	
-7.588794 	 -133.200000 	
-7.578789 	 -133.020000 	
-7.568784 	 -132.850000 	
-7.558779 	 -132.710000 	
-7.548774 	 -132.530000 	
-7.538769 	 -132.340000 	
-7.528764 	 -132.150000 	
-7.518759 	 -132.000000 	
-7.508754 	 -131.820000 	
-7.498749 	 -131.640000 	
-7.488744 	 -131.470000 	
-7.478739 	 -131.320000 	
-7.468734 	 -131.150000 	
-7.458729 	 -130.970000 	
-7.448724 	 -130.820000 	
-7.438719 	 -130.650000 	
-7.428714 	 -130.480000 	
-7.418709 	 -130.310000 	
-7.408704 	 -130.160000 	
-7.398699 	 -129.960000 	
-7.388694 	 -129.770000 	
-7.378689 	 -129.610000 	
-7.368684 	 -129.430000 	
-7.358679 	 -129.260000 	
-7.348674 	 -129.080000 	
-7.338669 	 -128.940000 	
-7.328664 	 -128.760000 	
-7.318659 	 -128.580000 	
-7.308654 	 -128.440000 	
-7.298649 	 -128.260000 	
-7.288644 	 -128.090000 	
-7.278639 	 -127.910000 	
-7.268634 	 -127.760000 	
-7.258629 	 -127.570000 	
-7.248624 	 -127.380000 	
-7.238619 	 -127.190000 	
-7.228614 	 -127.040000 	
-7.218609 	 -126.860000 	
-7.208604 	 -126.690000 	
-7.198599 	 -126.540000 	
-7.188594 	 -126.370000 	
-7.178589 	 -126.190000 	
-7.168584 	 -126.020000 	
-7.158579 	 -125.850000 	
-7.148574 	 -125.710000 	
-7.138569 	 -125.530000 	
-7.128564 	 -125.350000 	
-7.118559 	 -125.190000 	
-7.108554 	 -125.000000 	
-7.098549 	 -124.810000 	
-7.088544 	 -124.630000 	
-7.078539 	 -124.480000 	
-7.068534 	 -124.300000 	
-7.058529 	 -124.120000 	
-7.048524 	 -123.940000 	
-7.038519 	 -123.800000 	
-7.028514 	 -123.620000 	
-7.018509 	 -123.450000 	
-7.008504 	 -123.280000 	
-6.998499 	 -123.130000 	
-6.988494 	 -122.940000 	
-6.978489 	 -122.750000 	
-6.968484 	 -122.580000 	
-6.958479 	 -122.390000 	
-6.948474 	 -122.220000 	
-6.938469 	 -122.050000 	
-6.928464 	 -121.890000 	
-6.918459 	 -121.740000 	
-6.908454 	 -121.570000 	
-6.898449 	 -121.400000 	
-6.888444 	 -121.220000 	
-6.878439 	 -121.080000 	
-6.868434 	 -120.910000 	
-6.858429 	 -120.730000 	
-6.848424 	 -120.540000 	
-6.838419 	 -120.380000 	
-6.828414 	 -120.190000 	
-6.818409 	 -120.010000 	
-6.808404 	 -119.850000 	
-6.798399 	 -119.660000 	
-6.788394 	 -119.480000 	
-6.778389 	 -119.310000 	
-6.768384 	 -119.160000 	
-6.758379 	 -118.990000 	
-6.748374 	 -118.820000 	
-6.738369 	 -118.650000 	
-6.728364 	 -118.510000 	
-6.718359 	 -118.340000 	
-6.708354 	 -118.150000 	
-6.698349 	 -117.960000 	
-6.688344 	 -117.790000 	
-6.678339 	 -117.600000 	
-6.668334 	 -117.410000 	
-6.658329 	 -117.260000 	
-6.648324 	 -117.080000 	
-6.638319 	 -116.900000 	
-6.628314 	 -116.720000 	
-6.618309 	 -116.570000 	
-6.608304 	 -116.400000 	
-6.598299 	 -116.220000 	
-6.588294 	 -116.080000 	
-6.578289 	 -115.910000 	
-6.568284 	 -115.720000 	
-6.558279 	 -115.530000 	
-6.548274 	 -115.360000 	
-6.538269 	 -115.160000 	
-6.528264 	 -114.980000 	
-6.518259 	 -114.830000 	
-6.508254 	 -114.650000 	
-6.498249 	 -114.480000 	
-6.488244 	 -114.310000 	
-6.478239 	 -114.130000 	
-6.468234 	 -113.960000 	
-6.458229 	 -113.810000 	
-6.448224 	 -113.630000 	
-6.438219 	 -113.450000 	
-6.428214 	 -113.270000 	
-6.418209 	 -113.120000 	
-6.408204 	 -112.930000 	
-6.398199 	 -112.740000 	
-6.388194 	 -112.590000 	
-6.378189 	 -112.410000 	
-6.368184 	 -112.230000 	
-6.358179 	 -112.060000 	
-6.348174 	 -111.910000 	
-6.338169 	 -111.730000 	
-6.328164 	 -111.550000 	
-6.318159 	 -111.400000 	
-6.308154 	 -111.230000 	
-6.298149 	 -111.060000 	
-6.288144 	 -110.870000 	
-6.278139 	 -110.720000 	
-6.268134 	 -110.520000 	
-6.258129 	 -110.330000 	
-6.248124 	 -110.140000 	
-6.238119 	 -109.990000 	
-6.228114 	 -109.810000 	
-6.218109 	 -109.630000 	
-6.208104 	 -109.450000 	
-6.198099 	 -109.300000 	
-6.188094 	 -109.130000 	
-6.178089 	 -108.960000 	
-6.168084 	 -108.780000 	
-6.158079 	 -108.600000 	
-6.148074 	 -108.450000 	
-6.138069 	 -108.260000 	
-6.128064 	 -108.060000 	
-6.118059 	 -107.870000 	
-6.108054 	 -107.720000 	
-6.098049 	 -107.550000 	
-6.088044 	 -107.370000 	
-6.078039 	 -107.220000 	
-6.068034 	 -107.040000 	
-6.058029 	 -106.870000 	
-6.048024 	 -106.690000 	
-6.038019 	 -106.550000 	
-6.028014 	 -106.370000 	
-6.018009 	 -106.200000 	
-6.008004 	 -106.010000 	
-5.997999 	 -105.850000 	
-5.987994 	 -105.650000 	
-5.977989 	 -105.460000 	
-5.967984 	 -105.300000 	
-5.957979 	 -105.120000 	
-5.947974 	 -104.940000 	
-5.937969 	 -104.760000 	
-5.927964 	 -104.610000 	
-5.917959 	 -104.430000 	
-5.907954 	 -104.260000 	
-5.897949 	 -104.090000 	
-5.887944 	 -103.950000 	
-5.877939 	 -103.770000 	
-5.867934 	 -103.580000 	
-5.857929 	 -103.390000 	
-5.847924 	 -103.220000 	
-5.837919 	 -103.030000 	
-5.827914 	 -102.850000 	
-5.817909 	 -102.660000 	
-5.807904 	 -102.520000 	
-5.797899 	 -102.340000 	
-5.787894 	 -102.170000 	
-5.777889 	 -101.990000 	
-5.767884 	 -101.850000 	
-5.757879 	 -101.680000 	
-5.747874 	 -101.510000 	
-5.737869 	 -101.360000 	
-5.727864 	 -101.170000 	
-5.717859 	 -100.970000 	
-5.707854 	 -100.770000 	
-5.697849 	 -100.620000 	
-5.687844 	 -100.430000 	
-5.677839 	 -100.250000 	
-5.667834 	 -100.100000 	
-5.657829 	 -99.920000 	
-5.647824 	 -99.740000 	
-5.637819 	 -99.560000 	
-5.627814 	 -99.410000 	
-5.617809 	 -99.240000 	
-5.607804 	 -99.060000 	
-5.597799 	 -98.900000 	
-5.587794 	 -98.710000 	
-5.577789 	 -98.510000 	
-5.567784 	 -98.350000 	
-5.557779 	 -98.160000 	
-5.547774 	 -97.980000 	
-5.537769 	 -97.800000 	
-5.527764 	 -97.650000 	
-5.517759 	 -97.470000 	
-5.507754 	 -97.300000 	
-5.497749 	 -97.120000 	
-5.487744 	 -96.970000 	
-5.477739 	 -96.790000 	
-5.467734 	 -96.610000 	
-5.457729 	 -96.450000 	
-5.447724 	 -96.260000 	
-5.437719 	 -96.060000 	
-5.427714 	 -95.870000 	
-5.417709 	 -95.720000 	
-5.407704 	 -95.540000 	
-5.397699 	 -95.360000 	
-5.387694 	 -95.190000 	
-5.377689 	 -95.040000 	
-5.367684 	 -94.860000 	
-5.357679 	 -94.680000 	
-5.347674 	 -94.500000 	
-5.337669 	 -94.350000 	
-5.327664 	 -94.170000 	
-5.317659 	 -93.990000 	
-5.307654 	 -93.800000 	
-5.297649 	 -93.640000 	
-5.287644 	 -93.450000 	
-5.277639 	 -93.260000 	
-5.267634 	 -93.110000 	
-5.257629 	 -92.930000 	
-5.247624 	 -92.750000 	
-5.237619 	 -92.580000 	
-5.227614 	 -92.430000 	
-5.217609 	 -92.250000 	
-5.207604 	 -92.070000 	
-5.197599 	 -91.920000 	
-5.187594 	 -91.730000 	
-5.177589 	 -91.540000 	
-5.167584 	 -91.340000 	
-5.157579 	 -91.180000 	
-5.147574 	 -91.000000 	
-5.137569 	 -90.820000 	
-5.127564 	 -90.640000 	
-5.117559 	 -90.500000 	
-5.107554 	 -90.320000 	
-5.097549 	 -90.140000 	
-5.087544 	 -89.990000 	
-5.077539 	 -89.800000 	
-5.067534 	 -89.620000 	
-5.057529 	 -89.440000 	
-5.047524 	 -89.290000 	
-5.037519 	 -89.100000 	
-5.027514 	 -88.910000 	
-5.017509 	 -88.750000 	
-5.007504 	 -88.560000 	
-4.997499 	 -88.380000 	
-4.987494 	 -88.200000 	
-4.977489 	 -88.050000 	
-4.967484 	 -87.870000 	
-4.957479 	 -87.690000 	
-4.947474 	 -87.540000 	
-4.937469 	 -87.360000 	
-4.927464 	 -87.180000 	
-4.917459 	 -87.000000 	
-4.907454 	 -86.840000 	
-4.897449 	 -86.660000 	
-4.887444 	 -86.470000 	
-4.877439 	 -86.280000 	
-4.867434 	 -86.120000 	
-4.857429 	 -85.940000 	
-4.847424 	 -85.760000 	
-4.837419 	 -85.580000 	
-4.827414 	 -85.430000 	
-4.817409 	 -85.250000 	
-4.807404 	 -85.070000 	
-4.797399 	 -84.900000 	
-4.787394 	 -84.750000 	
-4.777389 	 -84.560000 	
-4.767384 	 -84.370000 	
-4.757379 	 -84.180000 	
-4.747374 	 -84.020000 	
-4.737369 	 -83.830000 	
-4.727364 	 -83.650000 	
-4.717359 	 -83.470000 	
-4.707354 	 -83.320000 	
-4.697349 	 -83.130000 	
-4.687344 	 -82.950000 	
-4.677339 	 -82.800000 	
-4.667334 	 -82.620000 	
-4.657329 	 -82.440000 	
-4.647324 	 -82.260000 	
-4.637319 	 -82.110000 	
-4.627314 	 -81.920000 	
-4.617309 	 -81.730000 	
-4.607304 	 -81.570000 	
-4.597299 	 -81.380000 	
-4.587294 	 -81.200000 	
-4.577289 	 -81.010000 	
-4.567284 	 -80.870000 	
-4.557279 	 -80.690000 	
-4.547274 	 -80.510000 	
-4.537269 	 -80.360000 	
-4.527264 	 -80.180000 	
-4.517259 	 -80.000000 	
-4.507254 	 -79.810000 	
-4.497249 	 -79.660000 	
-4.487244 	 -79.480000 	
-4.477239 	 -79.290000 	
-4.467234 	 -79.100000 	
-4.457229 	 -78.950000 	
-4.447224 	 -78.770000 	
-4.437219 	 -78.590000 	
-4.427214 	 -78.410000 	
-4.417209 	 -78.260000 	
-4.407204 	 -78.080000 	
-4.397199 	 -77.900000 	
-4.387194 	 -77.750000 	
-4.377189 	 -77.580000 	
-4.367184 	 -77.400000 	
-4.357179 	 -77.240000 	
-4.347174 	 -77.050000 	
-4.337169 	 -76.850000 	
-4.327164 	 -76.650000 	
-4.317159 	 -76.490000 	
-4.307154 	 -76.310000 	
-4.297149 	 -76.130000 	
-4.287144 	 -75.950000 	
-4.277139 	 -75.800000 	
-4.267134 	 -75.630000 	
-4.257129 	 -75.450000 	
-4.247124 	 -75.300000 	
-4.237119 	 -75.120000 	
-4.227114 	 -74.940000 	
-4.217109 	 -74.780000 	
-4.207104 	 -74.580000 	
-4.197099 	 -74.380000 	
-4.187094 	 -74.190000 	
-4.177089 	 -74.030000 	
-4.167084 	 -73.850000 	
-4.157079 	 -73.680000 	
-4.147074 	 -73.500000 	
-4.137069 	 -73.350000 	
-4.127064 	 -73.170000 	
-4.117059 	 -73.000000 	
-4.107054 	 -72.850000 	
-4.097049 	 -72.670000 	
-4.087044 	 -72.490000 	
-4.077039 	 -72.300000 	
-4.067034 	 -72.130000 	
-4.057029 	 -71.930000 	
-4.047024 	 -71.730000 	
-4.037019 	 -71.540000 	
-4.027014 	 -71.390000 	
-4.017009 	 -71.210000 	
-4.007004 	 -71.040000 	
-3.996998 	 -70.860000 	
-3.986993 	 -70.710000 	
-3.976988 	 -70.540000 	
-3.966983 	 -70.360000 	
-3.956978 	 -70.200000 	
-3.946973 	 -70.010000 	
-3.936968 	 -69.820000 	
-3.926963 	 -69.620000 	
-3.916958 	 -69.460000 	
-3.906953 	 -69.270000 	
-3.896948 	 -69.090000 	
-3.886943 	 -68.910000 	
-3.876938 	 -68.760000 	
-3.866933 	 -68.580000 	
-3.856928 	 -68.410000 	
-3.846923 	 -68.230000 	
-3.836918 	 -68.080000 	
-3.826913 	 -67.900000 	
-3.816908 	 -67.720000 	
-3.806903 	 -67.530000 	
-3.796898 	 -67.360000 	
-3.786893 	 -67.170000 	
-3.776888 	 -66.970000 	
-3.766883 	 -66.810000 	
-3.756878 	 -66.630000 	
-3.746873 	 -66.450000 	
-3.736868 	 -66.280000 	
-3.726863 	 -66.130000 	
-3.716858 	 -65.950000 	
-3.706853 	 -65.770000 	
-3.696848 	 -65.620000 	
-3.686843 	 -65.430000 	
-3.676838 	 -65.250000 	
-3.666833 	 -65.090000 	
-3.656828 	 -64.890000 	
-3.646823 	 -64.690000 	
-3.636818 	 -64.530000 	
-3.626813 	 -64.340000 	
-3.616808 	 -64.160000 	
-3.606803 	 -63.990000 	
-3.596798 	 -63.810000 	
-3.586793 	 -63.670000 	
-3.576788 	 -63.490000 	
-3.566783 	 -63.310000 	
-3.556778 	 -63.130000 	
-3.546773 	 -62.980000 	
-3.536768 	 -62.790000 	
-3.526763 	 -62.600000 	
-3.516758 	 -62.430000 	
-3.506753 	 -62.240000 	
-3.496748 	 -62.050000 	
-3.486743 	 -61.870000 	
-3.476738 	 -61.720000 	
-3.466733 	 -61.540000 	
-3.456728 	 -61.360000 	
-3.446723 	 -61.200000 	
-3.436718 	 -61.030000 	
-3.426713 	 -60.850000 	
-3.416708 	 -60.670000 	
-3.406703 	 -60.520000 	
-3.396698 	 -60.330000 	
-3.386693 	 -60.130000 	
-3.376688 	 -59.970000 	
-3.366683 	 -59.780000 	
-3.356678 	 -59.600000 	
-3.346673 	 -59.420000 	
-3.336668 	 -59.260000 	
-3.326663 	 -59.080000 	
-3.316658 	 -58.900000 	
-3.306653 	 -58.750000 	
-3.296648 	 -58.570000 	
-3.286643 	 -58.390000 	
-3.276638 	 -58.200000 	
-3.266633 	 -58.050000 	
-3.256628 	 -57.870000 	
-3.246623 	 -57.680000 	
-3.236618 	 -57.490000 	
-3.226613 	 -57.330000 	
-3.216608 	 -57.140000 	
-3.206603 	 -56.960000 	
-3.196598 	 -56.780000 	
-3.186593 	 -56.630000 	
-3.176588 	 -56.450000 	
-3.166583 	 -56.280000 	
-3.156578 	 -56.100000 	
-3.146573 	 -55.930000 	
-3.136568 	 -55.780000 	
-3.126563 	 -55.600000 	
-3.116558 	 -55.420000 	
-3.106553 	 -55.260000 	
-3.096548 	 -55.070000 	
-3.086543 	 -54.880000 	
-3.076538 	 -54.690000 	
-3.066533 	 -54.540000 	
-3.056528 	 -54.360000 	
-3.046523 	 -54.170000 	
-3.036518 	 -54.020000 	
-3.026513 	 -53.840000 	
-3.016508 	 -53.660000 	
-3.006503 	 -53.480000 	
-2.996498 	 -53.340000 	
-2.986493 	 -53.160000 	
-2.976488 	 -52.970000 	
-2.966483 	 -52.810000 	
-2.956478 	 -52.610000 	
-2.946473 	 -52.420000 	
-2.936468 	 -52.240000 	
-2.926463 	 -52.080000 	
-2.916458 	 -51.910000 	
-2.906453 	 -51.730000 	
-2.896448 	 -51.580000 	
-2.886443 	 -51.400000 	
-2.876438 	 -51.220000 	
-2.866433 	 -51.040000 	
-2.856428 	 -50.890000 	
-2.846423 	 -50.700000 	
-2.836418 	 -50.510000 	
-2.826413 	 -50.320000 	
-2.816408 	 -50.130000 	
-2.806403 	 -49.980000 	
-2.796398 	 -49.790000 	
-2.786393 	 -49.610000 	
-2.776388 	 -49.420000 	
-2.766383 	 -49.270000 	
-2.756378 	 -49.090000 	
-2.746373 	 -48.920000 	
-2.736368 	 -48.740000 	
-2.726363 	 -48.590000 	
-2.716358 	 -48.410000 	
-2.706353 	 -48.230000 	
-2.696348 	 -48.060000 	
-2.686343 	 -47.860000 	
-2.676338 	 -47.670000 	
-2.666333 	 -47.510000 	
-2.656328 	 -47.330000 	
-2.646323 	 -47.150000 	
-2.636318 	 -46.970000 	
-2.626313 	 -46.820000 	
-2.616308 	 -46.640000 	
-2.606303 	 -46.460000 	
-2.596298 	 -46.280000 	
-2.586293 	 -46.140000 	
-2.576288 	 -45.950000 	
-2.566283 	 -45.760000 	
-2.556278 	 -45.600000 	
-2.546273 	 -45.400000 	
-2.536268 	 -45.210000 	
-2.526263 	 -45.020000 	
-2.516258 	 -44.870000 	
-2.506253 	 -44.690000 	
-2.496248 	 -44.510000 	
-2.486243 	 -44.360000 	
-2.476238 	 -44.190000 	
-2.466233 	 -44.010000 	
-2.456228 	 -43.860000 	
-2.446223 	 -43.680000 	
-2.436218 	 -43.490000 	
-2.426213 	 -43.300000 	
-2.416208 	 -43.140000 	
-2.406203 	 -42.950000 	
-2.396198 	 -42.760000 	
-2.386193 	 -42.570000 	
-2.376188 	 -42.390000 	
-2.366183 	 -42.240000 	
-2.356178 	 -42.070000 	
-2.346173 	 -41.910000 	
-2.336168 	 -41.770000 	
-2.326163 	 -41.660000 	
-2.316158 	 -41.510000 	
-2.306153 	 -41.340000 	
-2.296148 	 -41.150000 	
-2.286143 	 -40.990000 	
-2.276138 	 -40.790000 	
-2.266133 	 -40.580000 	
-2.256128 	 -40.420000 	
-2.246123 	 -40.230000 	
-2.236118 	 -40.050000 	
-2.226113 	 -39.870000 	
-2.216108 	 -39.720000 	
-2.206103 	 -39.540000 	
-2.196098 	 -39.370000 	
-2.186093 	 -39.220000 	
-2.176088 	 -39.040000 	
-2.166083 	 -38.850000 	
-2.156078 	 -38.670000 	
-2.146073 	 -38.500000 	
